radius  u   sigma_rr   sigma_tt   sigma_zz  eps_rr   eps_tt   eps_zz  eps_p_rr   eps_p_tt   eps_p_zz
4  2.14094e-05   -0.0062899   -0.0062899   -0.0062899   0   0   0   0   0   0
3.99961  2.1411e-05   -0.00629145   0.0095798   0.000657671   -4.16947e-06   5.35328e-06   0   0   0   -2.11758e-22
3.99922  2.14127e-05   -0.00629299   0.00958135   0.000657671   -4.1704e-06   5.35421e-06   0   0   -8.47033e-22   0
3.99883  2.14143e-05   -0.00629454   0.0095829   0.000657671   -4.17133e-06   5.35514e-06   0   0   8.47033e-22   -2.11758e-22
3.99844  2.14159e-05   -0.00629609   0.00958445   0.000657671   -4.17226e-06   5.35607e-06   0   0   -8.47033e-22   5.29396e-23
3.99805  2.14175e-05   -0.00629764   0.009586   0.000657671   -4.17319e-06   5.35699e-06   0   0   8.47033e-22   -5.29396e-23
3.99766  2.14192e-05   -0.00629919   0.00958755   0.000657671   -4.17412e-06   5.35792e-06   0   -8.47033e-22   8.47033e-22   -1.05879e-22
3.99727  2.14208e-05   -0.00630074   0.0095891   0.000657671   -4.17505e-06   5.35885e-06   0   0   0   -1.05879e-22
3.99688  2.14224e-05   -0.00630229   0.00959065   0.000657671   -4.17598e-06   5.35978e-06   0   0   -8.47033e-22   0
3.99649  2.1424e-05   -0.00630384   0.0095922   0.000657671   -4.17691e-06   5.36072e-06   0   0   0   -1.05879e-22
3.9961  2.14257e-05   -0.00630539   0.00959375   0.000657671   -4.17784e-06   5.36165e-06   0   0   0   -1.05879e-22
3.99571  2.14273e-05   -0.00630694   0.0095953   0.000657671   -4.17877e-06   5.36258e-06   0   0   0   -1.05879e-22
3.99532  2.14289e-05   -0.0063085   0.00959685   0.000657672   -4.1797e-06   5.36351e-06   0   0   8.47033e-22   -2.11758e-22
3.99493  2.14306e-05   -0.00631005   0.00959841   0.000657672   -4.18063e-06   5.36444e-06   0   0   8.47033e-22   -5.29396e-23
3.99454  2.14322e-05   -0.0063116   0.00959996   0.000657672   -4.18156e-06   5.36537e-06   0   -8.47033e-22   0   0
3.99415  2.14338e-05   -0.00631315   0.00960151   0.000657672   -4.1825e-06   5.3663e-06   0   0   8.47033e-22   -5.29396e-23
3.99376  2.14355e-05   -0.00631471   0.00960307   0.000657672   -4.18343e-06   5.36724e-06   0   0   0   -5.29396e-23
3.99337  2.14371e-05   -0.00631626   0.00960462   0.000657672   -4.18436e-06   5.36817e-06   0   0   8.47033e-22   -2.11758e-22
3.99298  2.14387e-05   -0.00631782   0.00960618   0.000657672   -4.18529e-06   5.3691e-06   0   0   0   -5.29396e-23
3.99259  2.14404e-05   -0.00631937   0.00960773   0.000657672   -4.18623e-06   5.37004e-06   0   0   -8.47033e-22   -5.29396e-23
3.9922  2.1442e-05   -0.00632093   0.00960929   0.000657672   -4.18716e-06   5.37097e-06   0   -8.47033e-22   8.47033e-22   -5.29396e-23
3.99181  2.14436e-05   -0.00632249   0.00961085   0.000657672   -4.18809e-06   5.3719e-06   0   -8.47033e-22   0   5.29396e-23
3.99142  2.14453e-05   -0.00632404   0.0096124   0.000657672   -4.18903e-06   5.37284e-06   0   0   8.47033e-22   0
3.99103  2.14469e-05   -0.0063256   0.00961396   0.000657672   -4.18996e-06   5.37377e-06   0   0   0   -1.58819e-22
3.99064  2.14485e-05   -0.00632716   0.00961552   0.000657672   -4.1909e-06   5.37471e-06   0   0   8.47033e-22   -2.11758e-22
3.99025  2.14502e-05   -0.00632871   0.00961708   0.000657672   -4.19183e-06   5.37564e-06   0   -8.47033e-22   8.47033e-22   -1.05879e-22
3.98986  2.14518e-05   -0.00633027   0.00961863   0.000657672   -4.19277e-06   5.37658e-06   0   0   8.47033e-22   0
3.98947  2.14534e-05   -0.00633183   0.00962019   0.000657672   -4.1937e-06   5.37751e-06   0   0   0   -1.58819e-22
3.98908  2.14551e-05   -0.00633339   0.00962175   0.000657672   -4.19464e-06   5.37845e-06   0   0   0   -1.58819e-22
3.98869  2.14567e-05   -0.00633495   0.00962331   0.000657672   -4.19557e-06   5.37938e-06   0   0   8.47033e-22   -1.05879e-22
3.9883  2.14583e-05   -0.00633651   0.00962487   0.000657673   -4.19651e-06   5.38032e-06   0   0   8.47033e-22   0
3.98791  2.146e-05   -0.00633807   0.00962644   0.000657673   -4.19745e-06   5.38126e-06   0   0   0   -1.05879e-22
3.98752  2.14616e-05   -0.00633963   0.009628   0.000657673   -4.19838e-06   5.38219e-06   0   0   0   -1.05879e-22
3.98713  2.14632e-05   -0.0063412   0.00962956   0.000657673   -4.19932e-06   5.38313e-06   0   0   0   -1.58819e-22
3.98674  2.14649e-05   -0.00634276   0.00963112   0.000657673   -4.20026e-06   5.38407e-06   0   -8.47033e-22   0   -5.29396e-23
3.98635  2.14665e-05   -0.00634432   0.00963268   0.000657673   -4.2012e-06   5.38501e-06   0   0   0   0
3.98596  2.14682e-05   -0.00634588   0.00963425   0.000657673   -4.20213e-06   5.38595e-06   0   -8.47033e-22   0   0
3.98557  2.14698e-05   -0.00634745   0.00963581   0.000657673   -4.20307e-06   5.38688e-06   0   0   8.47033e-22   -1.58819e-22
3.98518  2.14714e-05   -0.00634901   0.00963738   0.000657673   -4.20401e-06   5.38782e-06   0   0   8.47033e-22   -1.05879e-22
3.98479  2.14731e-05   -0.00635058   0.00963894   0.000657673   -4.20495e-06   5.38876e-06   0   0   0   -2.11758e-22
3.9844  2.14747e-05   -0.00635214   0.00964051   0.000657673   -4.20589e-06   5.3897e-06   0   0   0   -1.58819e-22
3.98401  2.14764e-05   -0.00635371   0.00964207   0.000657673   -4.20683e-06   5.39064e-06   0   0   0   -5.29396e-23
3.98362  2.1478e-05   -0.00635527   0.00964364   0.000657673   -4.20777e-06   5.39158e-06   0   0   0   -1.05879e-22
3.98323  2.14796e-05   -0.00635684   0.0096452   0.000657673   -4.20871e-06   5.39252e-06   0   0   0   -1.05879e-22
3.98284  2.14813e-05   -0.0063584   0.00964677   0.000657673   -4.20965e-06   5.39346e-06   0   -8.47033e-22   0   -1.05879e-22
3.98245  2.14829e-05   -0.00635997   0.00964834   0.000657673   -4.21059e-06   5.3944e-06   0   0   0   -1.05879e-22
3.98206  2.14846e-05   -0.00636154   0.00964991   0.000657673   -4.21153e-06   5.39534e-06   0   0   8.47033e-22   0
3.98167  2.14862e-05   -0.00636311   0.00965148   0.000657674   -4.21247e-06   5.39628e-06   0   0   8.47033e-22   -2.11758e-22
3.98128  2.14879e-05   -0.00636468   0.00965304   0.000657674   -4.21341e-06   5.39722e-06   0   0   0   5.29396e-23
3.98089  2.14895e-05   -0.00636625   0.00965461   0.000657674   -4.21435e-06   5.39816e-06   0   0   -8.47033e-22   -2.11758e-22
3.9805  2.14911e-05   -0.00636782   0.00965618   0.000657674   -4.21529e-06   5.39911e-06   0   0   0   -1.05879e-22
3.98011  2.14928e-05   -0.00636939   0.00965775   0.000657674   -4.21624e-06   5.40005e-06   0   0   0   5.29396e-23
3.97972  2.14944e-05   -0.00637096   0.00965932   0.000657674   -4.21718e-06   5.40099e-06   0   -8.47033e-22   0   -1.58819e-22
3.97933  2.14961e-05   -0.00637253   0.0096609   0.000657674   -4.21812e-06   5.40193e-06   0   -8.47033e-22   0   0
3.97894  2.14977e-05   -0.0063741   0.00966247   0.000657674   -4.21906e-06   5.40288e-06   0   -8.47033e-22   -8.47033e-22   -5.29396e-23
3.97855  2.14994e-05   -0.00637567   0.00966404   0.000657674   -4.22001e-06   5.40382e-06   0   0   -8.47033e-22   -1.58819e-22
3.97816  2.1501e-05   -0.00637724   0.00966561   0.000657674   -4.22095e-06   5.40476e-06   0   0   8.47033e-22   -3.70577e-22
3.97777  2.15027e-05   -0.00637881   0.00966719   0.000657674   -4.22189e-06   5.40571e-06   0   0   8.47033e-22   -5.29396e-23
3.97738  2.15043e-05   -0.00638039   0.00966876   0.000657674   -4.22284e-06   5.40665e-06   0   -8.47033e-22   8.47033e-22   -1.58819e-22
3.97699  2.1506e-05   -0.00638196   0.00967033   0.000657674   -4.22378e-06   5.4076e-06   0   0   0   -1.58819e-22
3.9766  2.15076e-05   -0.00638354   0.00967191   0.000657674   -4.22473e-06   5.40854e-06   0   0   8.47033e-22   -5.29396e-23
3.97621  2.15092e-05   -0.00638511   0.00967348   0.000657674   -4.22567e-06   5.40948e-06   0   0   0   -5.29396e-23
3.97582  2.15109e-05   -0.00638669   0.00967506   0.000657674   -4.22662e-06   5.41043e-06   0   0   0   -1.05879e-22
3.97543  2.15125e-05   -0.00638826   0.00967663   0.000657674   -4.22756e-06   5.41138e-06   0   0   0   5.29396e-23
3.97504  2.15142e-05   -0.00638984   0.00967821   0.000657674   -4.22851e-06   5.41232e-06   0   -8.47033e-22   0   0
3.97465  2.15158e-05   -0.00639141   0.00967979   0.000657675   -4.22945e-06   5.41327e-06   0   0   0   -1.58819e-22
3.97426  2.15175e-05   -0.00639299   0.00968136   0.000657675   -4.2304e-06   5.41421e-06   0   0   0   -1.58819e-22
3.97387  2.15191e-05   -0.00639457   0.00968294   0.000657675   -4.23135e-06   5.41516e-06   0   0   0   0
3.97348  2.15208e-05   -0.00639615   0.00968452   0.000657675   -4.23229e-06   5.41611e-06   0   0   8.47033e-22   -5.29396e-23
3.97309  2.15224e-05   -0.00639772   0.0096861   0.000657675   -4.23324e-06   5.41705e-06   0   0   0   -5.29396e-23
3.9727  2.15241e-05   -0.0063993   0.00968768   0.000657675   -4.23419e-06   5.418e-06   0   0   0   -5.29396e-23
3.97231  2.15257e-05   -0.00640088   0.00968926   0.000657675   -4.23513e-06   5.41895e-06   0   0   0   -5.29396e-23
3.97192  2.15274e-05   -0.00640246   0.00969084   0.000657675   -4.23608e-06   5.4199e-06   0   0   0   -1.05879e-22
3.97153  2.1529e-05   -0.00640404   0.00969242   0.000657675   -4.23703e-06   5.42085e-06   0   -8.47033e-22   0   0
3.97114  2.15307e-05   -0.00640562   0.009694   0.000657675   -4.23798e-06   5.42179e-06   0   0   0   -5.29396e-23
3.97075  2.15324e-05   -0.0064072   0.00969558   0.000657675   -4.23893e-06   5.42274e-06   0   -8.47033e-22   0   0
3.97036  2.1534e-05   -0.00640879   0.00969716   0.000657675   -4.23988e-06   5.42369e-06   0   0   -8.47033e-22   -5.29396e-23
3.96997  2.15357e-05   -0.00641037   0.00969874   0.000657675   -4.24083e-06   5.42464e-06   0   0   0   -1.05879e-22
3.96958  2.15373e-05   -0.00641195   0.00970033   0.000657675   -4.24178e-06   5.42559e-06   0   0   0   -1.58819e-22
3.96919  2.1539e-05   -0.00641353   0.00970191   0.000657675   -4.24273e-06   5.42654e-06   0   0   0   0
3.9688  2.15406e-05   -0.00641512   0.00970349   0.000657675   -4.24368e-06   5.42749e-06   0   -8.47033e-22   0   0
3.96841  2.15423e-05   -0.0064167   0.00970508   0.000657675   -4.24463e-06   5.42844e-06   0   -8.47033e-22   0   0
3.96802  2.15439e-05   -0.00641828   0.00970666   0.000657676   -4.24558e-06   5.42939e-06   0   0   0   -1.58819e-22
3.96763  2.15456e-05   -0.00641987   0.00970825   0.000657676   -4.24653e-06   5.43034e-06   0   0   0   -1.05879e-22
3.96724  2.15472e-05   -0.00642145   0.00970983   0.000657676   -4.24748e-06   5.43129e-06   0   0   -8.47033e-22   -5.29396e-23
3.96685  2.15489e-05   -0.00642304   0.00971142   0.000657676   -4.24843e-06   5.43225e-06   0   0   0   -1.58819e-22
3.96646  2.15506e-05   -0.00642463   0.00971301   0.000657676   -4.24938e-06   5.4332e-06   0   0   8.47033e-22   -2.11758e-22
3.96607  2.15522e-05   -0.00642621   0.00971459   0.000657676   -4.25033e-06   5.43415e-06   0   0   0   -1.05879e-22
3.96568  2.15539e-05   -0.0064278   0.00971618   0.000657676   -4.25129e-06   5.4351e-06   0   0   -8.47033e-22   0
3.96529  2.15555e-05   -0.00642939   0.00971777   0.000657676   -4.25224e-06   5.43606e-06   0   0   8.47033e-22   -2.11758e-22
3.9649  2.15572e-05   -0.00643098   0.00971936   0.000657676   -4.25319e-06   5.43701e-06   0   0   8.47033e-22   0
3.96451  2.15589e-05   -0.00643257   0.00972095   0.000657676   -4.25414e-06   5.43796e-06   0   -8.47033e-22   8.47033e-22   -2.11758e-22
3.96412  2.15605e-05   -0.00643415   0.00972254   0.000657676   -4.2551e-06   5.43892e-06   0   0   0   -5.29396e-23
3.96373  2.15622e-05   -0.00643574   0.00972412   0.000657676   -4.25605e-06   5.43987e-06   0   -8.47033e-22   0   -2.64698e-22
3.96334  2.15638e-05   -0.00643733   0.00972572   0.000657676   -4.25701e-06   5.44082e-06   0   0   0   -2.11758e-22
3.96295  2.15655e-05   -0.00643892   0.00972731   0.000657676   -4.25796e-06   5.44178e-06   0   -8.47033e-22   0   0
3.96256  2.15672e-05   -0.00644052   0.0097289   0.000657676   -4.25892e-06   5.44273e-06   0   0   8.47033e-22   0
3.96217  2.15688e-05   -0.00644211   0.00973049   0.000657676   -4.25987e-06   5.44369e-06   0   -8.47033e-22   0   -1.58819e-22
3.96178  2.15705e-05   -0.0064437   0.00973208   0.000657676   -4.26083e-06   5.44464e-06   0   -8.47033e-22   8.47033e-22   -1.05879e-22
3.96139  2.15721e-05   -0.00644529   0.00973367   0.000657677   -4.26178e-06   5.4456e-06   0   0   -8.47033e-22   -1.05879e-22
3.961  2.15738e-05   -0.00644688   0.00973527   0.000657677   -4.26274e-06   5.44655e-06   0   0   8.47033e-22   -2.11758e-22
3.96061  2.15755e-05   -0.00644848   0.00973686   0.000657677   -4.26369e-06   5.44751e-06   0   0   -8.47033e-22   -5.29396e-23
3.96022  2.15771e-05   -0.00645007   0.00973845   0.000657677   -4.26465e-06   5.44847e-06   0   0   0   -1.05879e-22
3.95983  2.15788e-05   -0.00645167   0.00974005   0.000657677   -4.26561e-06   5.44942e-06   0   0   0   -1.58819e-22
3.95944  2.15805e-05   -0.00645326   0.00974164   0.000657677   -4.26656e-06   5.45038e-06   0   -8.47033e-22   -8.47033e-22   0
3.95905  2.15821e-05   -0.00645486   0.00974324   0.000657677   -4.26752e-06   5.45134e-06   0   -8.47033e-22   8.47033e-22   -1.05879e-22
3.95866  2.15838e-05   -0.00645645   0.00974484   0.000657677   -4.26848e-06   5.4523e-06   0   -8.47033e-22   0   -2.11758e-22
3.95827  2.15854e-05   -0.00645805   0.00974643   0.000657677   -4.26943e-06   5.45325e-06   0   0   8.47033e-22   -1.58819e-22
3.95788  2.15871e-05   -0.00645964   0.00974803   0.000657677   -4.27039e-06   5.45421e-06   0   0   8.47033e-22   -5.29396e-23
3.95749  2.15888e-05   -0.00646124   0.00974963   0.000657677   -4.27135e-06   5.45517e-06   0   0   8.47033e-22   -1.58819e-22
3.9571  2.15904e-05   -0.00646284   0.00975122   0.000657677   -4.27231e-06   5.45613e-06   0   0   -8.47033e-22   0
3.95671  2.15921e-05   -0.00646444   0.00975282   0.000657677   -4.27327e-06   5.45709e-06   0   0   -8.47033e-22   0
3.95632  2.15938e-05   -0.00646603   0.00975442   0.000657677   -4.27423e-06   5.45805e-06   0   -8.47033e-22   0   0
3.95593  2.15954e-05   -0.00646763   0.00975602   0.000657677   -4.27519e-06   5.45901e-06   0   -8.47033e-22   -8.47033e-22   0
3.95554  2.15971e-05   -0.00646923   0.00975762   0.000657677   -4.27615e-06   5.45997e-06   0   0   0   -1.05879e-22
3.95515  2.15988e-05   -0.00647083   0.00975922   0.000657677   -4.27711e-06   5.46093e-06   0   0   -8.47033e-22   -5.29396e-23
3.95476  2.16004e-05   -0.00647243   0.00976082   0.000657678   -4.27807e-06   5.46189e-06   0   -8.47033e-22   0   -1.05879e-22
3.95437  2.16021e-05   -0.00647403   0.00976242   0.000657678   -4.27903e-06   5.46285e-06   0   0   0   -3.17637e-22
3.95398  2.16038e-05   -0.00647564   0.00976402   0.000657678   -4.27999e-06   5.46381e-06   0   0   -8.47033e-22   0
3.95359  2.16055e-05   -0.00647724   0.00976563   0.000657678   -4.28095e-06   5.46477e-06   0   -8.47033e-22   8.47033e-22   -1.58819e-22
3.9532  2.16071e-05   -0.00647884   0.00976723   0.000657678   -4.28191e-06   5.46573e-06   0   0   0   -5.29396e-23
3.95281  2.16088e-05   -0.00648044   0.00976883   0.000657678   -4.28287e-06   5.46669e-06   0   0   0   -5.29396e-23
3.95242  2.16105e-05   -0.00648205   0.00977043   0.000657678   -4.28383e-06   5.46765e-06   0   -8.47033e-22   8.47033e-22   -2.11758e-22
3.95203  2.16121e-05   -0.00648365   0.00977204   0.000657678   -4.2848e-06   5.46862e-06   0   0   8.47033e-22   -5.29396e-23
3.95164  2.16138e-05   -0.00648525   0.00977364   0.000657678   -4.28576e-06   5.46958e-06   0   0   0   -5.29396e-23
3.95125  2.16155e-05   -0.00648686   0.00977525   0.000657678   -4.28672e-06   5.47054e-06   0   0   8.47033e-22   -1.58819e-22
3.95086  2.16172e-05   -0.00648846   0.00977685   0.000657678   -4.28768e-06   5.47151e-06   0   0   0   0
3.95047  2.16188e-05   -0.00649007   0.00977846   0.000657678   -4.28865e-06   5.47247e-06   0   0   8.47033e-22   -1.05879e-22
3.95008  2.16205e-05   -0.00649167   0.00978007   0.000657678   -4.28961e-06   5.47343e-06   0   0   8.47033e-22   -2.11758e-22
3.94969  2.16222e-05   -0.00649328   0.00978167   0.000657678   -4.29058e-06   5.4744e-06   0   0   0   -2.11758e-22
3.9493  2.16238e-05   -0.00649489   0.00978328   0.000657678   -4.29154e-06   5.47536e-06   0   0   0   -5.29396e-23
3.94891  2.16255e-05   -0.0064965   0.00978489   0.000657678   -4.2925e-06   5.47633e-06   0   0   0   0
3.94852  2.16272e-05   -0.0064981   0.0097865   0.000657678   -4.29347e-06   5.47729e-06   0   -8.47033e-22   0   0
3.94813  2.16289e-05   -0.00649971   0.0097881   0.000657679   -4.29443e-06   5.47826e-06   0   0   0   -5.29396e-23
3.94774  2.16305e-05   -0.00650132   0.00978971   0.000657679   -4.2954e-06   5.47922e-06   0   -8.47033e-22   0   -1.58819e-22
3.94735  2.16322e-05   -0.00650293   0.00979132   0.000657679   -4.29637e-06   5.48019e-06   0   0   0   0
3.94696  2.16339e-05   -0.00650454   0.00979293   0.000657679   -4.29733e-06   5.48115e-06   0   0   0   -1.05879e-22
3.94657  2.16356e-05   -0.00650615   0.00979454   0.000657679   -4.2983e-06   5.48212e-06   0   -8.47033e-22   0   -1.58819e-22
3.94618  2.16372e-05   -0.00650776   0.00979616   0.000657679   -4.29926e-06   5.48309e-06   0   0   8.47033e-22   -5.29396e-23
3.94579  2.16389e-05   -0.00650937   0.00979777   0.000657679   -4.30023e-06   5.48405e-06   0   -8.47033e-22   8.47033e-22   -1.58819e-22
3.9454  2.16406e-05   -0.00651098   0.00979938   0.000657679   -4.3012e-06   5.48502e-06   0   0   0   1.05879e-22
3.94501  2.16423e-05   -0.0065126   0.00980099   0.000657679   -4.30217e-06   5.48599e-06   0   0   0   -5.29396e-23
3.94462  2.1644e-05   -0.00651421   0.00980261   0.000657679   -4.30313e-06   5.48696e-06   0   0   0   -1.58819e-22
3.94423  2.16456e-05   -0.00651582   0.00980422   0.000657679   -4.3041e-06   5.48792e-06   0   -8.47033e-22   8.47033e-22   -2.11758e-22
3.94384  2.16473e-05   -0.00651744   0.00980583   0.000657679   -4.30507e-06   5.48889e-06   0   0   0   -1.05879e-22
3.94345  2.1649e-05   -0.00651905   0.00980745   0.000657679   -4.30604e-06   5.48986e-06   0   0   -8.47033e-22   0
3.94306  2.16507e-05   -0.00652067   0.00980906   0.000657679   -4.30701e-06   5.49083e-06   0   -8.47033e-22   8.47033e-22   -2.11758e-22
3.94267  2.16524e-05   -0.00652228   0.00981068   0.000657679   -4.30798e-06   5.4918e-06   0   0   -8.47033e-22   -5.29396e-23
3.94228  2.1654e-05   -0.0065239   0.00981229   0.000657679   -4.30895e-06   5.49277e-06   0   0   0   -1.05879e-22
3.94189  2.16557e-05   -0.00652551   0.00981391   0.00065768   -4.30992e-06   5.49374e-06   0   -8.47033e-22   0   -2.11758e-22
3.9415  2.16574e-05   -0.00652713   0.00981553   0.00065768   -4.31089e-06   5.49471e-06   0   0   8.47033e-22   5.29396e-23
3.94111  2.16591e-05   -0.00652875   0.00981714   0.00065768   -4.31186e-06   5.49568e-06   0   0   8.47033e-22   -2.11758e-22
3.94072  2.16608e-05   -0.00653036   0.00981876   0.00065768   -4.31283e-06   5.49665e-06   0   0   8.47033e-22   0
3.94033  2.16624e-05   -0.00653198   0.00982038   0.00065768   -4.3138e-06   5.49762e-06   0   0   0   -5.29396e-23
3.93994  2.16641e-05   -0.0065336   0.009822   0.00065768   -4.31477e-06   5.49859e-06   0   -8.47033e-22   0   -1.58819e-22
3.93955  2.16658e-05   -0.00653522   0.00982362   0.00065768   -4.31574e-06   5.49956e-06   0   0   0   -5.29396e-23
3.93916  2.16675e-05   -0.00653684   0.00982524   0.00065768   -4.31671e-06   5.50053e-06   0   -8.47033e-22   0   -5.29396e-23
3.93877  2.16692e-05   -0.00653846   0.00982686   0.00065768   -4.31768e-06   5.50151e-06   0   0   0   -1.05879e-22
3.93838  2.16709e-05   -0.00654008   0.00982848   0.00065768   -4.31866e-06   5.50248e-06   0   0   8.47033e-22   -5.29396e-23
3.93799  2.16725e-05   -0.0065417   0.0098301   0.00065768   -4.31963e-06   5.50345e-06   0   -8.47033e-22   0   -5.29396e-23
3.9376  2.16742e-05   -0.00654332   0.00983172   0.00065768   -4.3206e-06   5.50443e-06   0   0   0   -5.29396e-23
3.93721  2.16759e-05   -0.00654494   0.00983334   0.00065768   -4.32157e-06   5.5054e-06   0   0   -8.47033e-22   -5.29396e-23
3.93682  2.16776e-05   -0.00654657   0.00983497   0.00065768   -4.32255e-06   5.50637e-06   0   -8.47033e-22   0   -1.05879e-22
